time,open,high,low,close,volume
1759795200,132.11,132.51,129.81,130.59,185161
1759881600,131.18,132.02,130.26,131.61,151589
1759968000,131.7,132.84,130.2,130.61,327792
1760054400,130.94,132.01,129.89,130.93,229971
1760313600,130.99,132.35,130.16,130.22,148741
1760400000,130.04,131.06,129.04,129.8,134332
1760486400,129.8,130.39,127.86,128.1,141600
1760572800,128.44,129.5,127.85,129.16,135735
1760659200,129.16,130.1,128.85,129.34,145207
1760918400,129.61,130.09,128.02,130,93072
1761004800,130.61,131.77,129.12,130.57,130154
1761091200,130.65,132.11,129.98,130.06,127278
1761177600,129.74,131.53,129.66,130.77,163110
1761264000,130.75,130.89,128.54,128.88,204250
1761523200,129.14,129.9,128.45,128.78,232567
1761609600,128.75,129.11,127.47,128.1,164073
1761696000,127.28,127.5,123.42,124.31,293949
1761782400,124.04,125.52,123.04,124.36,299071
1761868800,115.29,118.1,103.22,116.01,1583344
1762128000,116.09,116.09,108.29,113.12,934386
1762214400,114.36,116,112.52,114.18,519165
1762300800,114.33,116.04,112.77,115.57,451801
1762387200,115.02,116.96,113.8,116.15,455311
1762473600,116.23,116.92,114.68,116.22,347771
1762732800,115.99,116.77,114,116.38,220358
1762819200,116.96,119.51,116.96,118.27,220578
1762905600,118.34,119.67,117.91,118.16,226108
1762992000,118.3,121.88,118.3,120.2,338292
1763078400,119.77,120.69,118.39,118.61,184596
1763337600,118.49,119.49,117.56,119.34,419786
1763424000,119.66,120.11,118.06,119.31,427641
1763510400,119.51,119.51,117.71,118,294141
1763596800,118,119.61,117.36,118.58,255385
1763683200,118.13,122.24,118.13,121.52,238686
1763942400,120.85,122.4,120.44,121.47,331125
1764028800,122.41,124.08,122.41,123.44,278356
1764115200,123.02,124.52,123.02,123.81,241149
1764288000,123.63,126.08,123.63,124.75,138414
1764547200,124.88,124.96,123.03,123.28,246003
1764633600,123.77,123.86,120.8,121.6,112223
1764720000,121.45,124.26,121.41,122.06,248445
1764806400,122.2,124.08,121.93,122.02,396061
1764892800,121.99,123.51,120.62,121.91,266478
1765152000,120.92,122.1,119.3,120.07,205398
1765238400,119.6,119.85,115.36,115.72,261664
1765324800,116.17,117.8,115.13,117.17,277003
1765411200,117.96,118.67,117.16,118.01,153146
1765497600,118.52,121.64,117.65,121.47,305210
1765756800,121.48,122.46,120.48,122.33,282270
1765843200,122.67,123.85,119.52,122.83,330743
1765929600,122.11,124.6,120.07,123.63,268943
1766016000,123.67,124.12,122.02,122.62,158781
1766102400,123.34,124.33,121.26,121.39,364817
1766361600,121.39,123.7,121.07,122.74,264770
1766448000,122.87,123.03,121.32,122.19,133181
1766534400,122.53,123.18,121.76,122.75,100786
1766707200,122.37,123.48,121.71,123.25,171978
1766966400,123.29,124.31,122.32,123.21,178216
1767052800,122.8,124.3,122.42,122.74,122278
1767139200,121.52,123.34,121.34,121.96,123806
1767312000,121.78,123,120.78,122.54,112585
1767571200,121.76,124.58,121.75,123,220086
1767657600,122.22,122.85,120.11,120.56,336372
1767744000,120.67,121.95,117.61,120.44,203274
1767830400,119.92,123.37,119.52,122.44,90281
1767916800,122.08,124.97,121.46,123.85,174390
1768176000,124,125.3,122.98,125.13,220576
1768262400,125.05,125.44,122.53,123.5,148006
1768348800,124.11,127.16,124.11,126.85,225364
1768435200,127.14,127.22,124.52,125.11,157137
1768521600,124,125.2,123.24,124.71,150194
1768867200,124.9,125.53,123.44,123.82,93372
1768953600,124.31,125.62,123.9,125.01,180260
1769040000,125.05,126.41,124.06,124.47,195079
1769126400,124.34,126.28,123.86,126,144636
1769385600,126.42,126.99,125.1,126.35,129826
1769472000,124.95,126.3,124.17,124.74,103730
1769558400,124.2,125.07,123.25,123.7,112853
1769644800,124.29,125.28,122.58,123.85,146364
1769731200,122.91,125.01,122.66,124.95,131333
1769990400,124.2,125.91,124.2,124.83,220480
1770076800,123.91,127.93,123.69,124.63,388924
1770163200,125.71,130.43,124.7,129.23,263199
1770249600,127.67,129.08,121.96,123.98,1293653
1770336000,127.53,135.99,127.53,134.31,435299
1770595200,133.58,139.57,133.25,138.47,539947
1770681600,137.81,140.93,137.81,140.17,286871
1770768000,139.03,140.55,138.59,140.01,264831
1770854400,140.16,142,139.38,140.51,272540
1770940800,140.51,142.93,140.41,142.58,229280
1771286400,139.26,143.62,139.26,141.65,300542
1771372800,141.47,143.11,140.84,141.72,303231
1771459200,141.65,143.32,141.03,143.16,266858
1771545600,143.12,145.14,142,145.05,352879
1771804800,143.49,146.24,143.13,145.72,253896
1771891200,146.07,146.91,143.85,144.14,200139
1771977600,142.41,143.66,140.43,142.68,119510
1772064000,143.52,143.92,141,141.79,138393
1772150400,141.53,144.01,141,143.71,108839
1772409600,143,143.35,141.62,142.67,133507
1772496000,140.64,141.32,136.92,139.76,125514
1772582400,139.34,139.51,136,137.04,154629
1772668800,136,136.34,134.41,134.73,198631
1772755200,134,134,131,132.08,159397
1773014400,130.97,133.98,127.53,133.75,233608
1773100800,133.35,134.13,131.4,132.13,227078
1773187200,131.8,133.28,130.04,132.02,274825
1773273600,131.27,132.79,128.64,128.86,250214
1773360000,130.15,130.15,127.05,128.65,311600
1773619200,129.48,131.41,126,129.05,114994
1773705600,129.97,131.02,128.24,129.5,103833
1773792000,124.38,126.58,121.42,124.22,430250
1773878400,123.01,124.82,121.45,123.97,204870
1773964800,124.26,124.26,120.31,121.06,486843
1774224000,123.51,126.34,122.98,124.14,185478
1774310400,123.16,125.22,122.87,124.15,143132
1774396800,125.44,126.57,123.7,125.82,131247
1774483200,125.22,127.34,124.11,124.69,160507
1774569600,123.94,124.21,121.76,121.99,129445
1774828800,122.56,123.94,121.1,123.36,181675
1774915200,124.39,126.96,123.59,126.02,281691
1775001600,127.34,128.64,126.32,126.75,134824
1775088000,125.14,127.09,124.25,126.01,116260
1775433600,124.59,126.19,124.59,126.01,142965
1775520000,125.32,127.17,124.8,125.61,132923
1775606400,131.38,132.67,128.14,132.02,235685
1775692800,131.22,132.44,127.33,131.4,195335
1775779200,132.25,132.7,130.85,131.5,184808
1776038400,130.8,132.42,127.58,132.11,137917
1776124800,131.22,132.72,130.97,131.01,94388
1776211200,130.81,131.03,128.6,129.65,105514
1776297600,126.9,130.33,126.9,128.29,107764
1776384000,129.65,132.3,129.65,130.63,151142
1776643200,130.57,131.99,129.66,130.92,93885
1776729600,130.7,132.25,126.69,126.69,118881
1776816000,127.28,127.28,122.96,124.55,168202
1776902400,125.38,127.44,124.43,124.94,171226
1776988800,124.41,124.41,122.57,124.08,157107
1777248000,124.04,126.23,123.54,124.73,152989
1777334400,126.12,126.65,123.72,125.77,116861
1777420800,125.14,125.9,122.79,122.9,133021
1777507200,123.43,126.08,121.87,123.68,345312
1777593600,127.21,128.48,117.9,119.02,532559
1777852800,118.68,121.75,117.45,120.6,377191
1777939200,120.9,123.71,120.82,122.03,259798
1778025600,123.18,126.39,121.66,122.63,432711
1778112000,122.94,126.47,122.57,125.11,383573
1778198400,125.23,125.86,120.39,120.99,414533
1778457600,121.22,121.22,119.44,119.96,310999
1778544000,120.45,120.86,117.14,118.05,388889
1778630400,118,118.75,116.42,117.88,354040
1778716800,118.73,120.16,117.04,117.99,283629
1778803200,117.91,117.92,114.47,114.67,204278
1779062400,115.6,117.32,115.16,115.81,165630
1779148800,115.89,116.04,112.44,113.61,268770
1779235200,114.07,115.45,111.55,115.26,258369
1779321600,116.5,116.5,112.77,115.51,147160
1779408000,115.8,116.8,114.71,116.23,216040
1779753600,116.2,116.97,115.37,116.38,156519
1779840000,116.94,118.11,114.73,115.3,181210
1779926400,114.81,116.34,113.35,115.99,225084
1780012800,115.06,117.26,113.75,115.85,205858
1780272000,114.69,115.13,112.03,112.38,264060
1780358400,111.95,113.05,111.24,112.18,174593
1780444800,111.69,114.02,111.69,112.53,137162
1780531200,114.95,115.76,111.54,112.55,121650
1780617600,113.09,114.59,111.98,113.36,216864
1780876800,112.26,112.64,110.95,111.94,140037
1780963200,113.28,116.15,112.66,115.9,166272
1781049600,116.15,116.55,113.37,114.67,228984
1781136000,115.11,117.01,114.25,116.58,172346
1781222400,117.9,118.47,116.37,117.72,151022
1781481600,118.7,120.74,117.56,118.08,246200
1781568000,118.5,121.05,113.77,120.65,140218
1781654400,121.62,122.35,119.46,119.99,327203
1781740800,120.46,122.55,119.11,120.32,235220
1782086400,119.56,121.01,118.88,120,102654
1782172800,120.36,122.58,119.08,120.61,160828
1782259200,121.98,125.05,121.77,124.28,120337
1782345600,125.73,128.14,124.89,126.43,128305
1782432000,125.94,127.12,124.75,125.98,163057
1782691200,125.61,126.05,123.92,125.29,144601
1782777600,124.6,126.31,123.94,125.2,94838
1782864000,125.12,126.84,124.1,125.25,188223
1782950400,126.27,128.23,125.41,126.98,131559
1783296000,126.43,127.05,124.17,126.01,150037
1783382400,126.63,128.72,126.16,127.69,165276
1783468800,126.45,126.71,123.04,124.21,182588
1783555200,124.46,125.48,123.78,124.45,91883
1783641600,125,126.98,124.37,125.53,96490
1783900800,126.09,127.17,124.39,124.89,150231
1783987200,128.42,129.41,127.96,128.28,277742
1784073600,129.71,130.77,128.45,129.11,204917
1784160000,130.02,135.08,130.02,134.75,250180
1784246400,135.83,136.65,130.71,132.61,220203
1784505600,132.38,132.38,129.74,129.91,179026
1784592000,130.53,131.06,127.92,128.91,115021
1784678400,129.81,130.48,128.48,129.17,126943
1784764800,128.85,129.82,128.17,129,144884
1784851200,129.59,132.73,129.59,132.36,117556
1785110400,133.19,134.08,132.65,133.37,178261
1785196800,135.38,138.03,134.83,137.81,261432
1785283200,136,136.6,134.55,136.23,272288
1785369600,136.4,136.4,133.1,133.87,258161
1785456000,137.46,139.57,132.17,133.96,332753
1785715200,137.23,138.46,134.53,136.77,291985
1785801600,137.87,137.87,135.34,136.18,181734
1785888000,136.87,136.88,134.87,136.75,208336
1785974400,138.62,138.69,134.67,135.78,325428
1786060800,135.06,137.68,134.71,135.42,452439
1786320000,134.39,134.52,132.93,133.68,167368
1786406400,132.8,135.05,132.8,134.75,155346
1786492800,133.51,134.47,132.27,133.15,108117
1786579200,134.44,134.44,132.09,132.57,250762
1786665600,132.09,134.04,129.56,132.1,106199
1786924800,133.16,133.16,130.22,131.74,145034
1787011200,132.75,133.47,131.22,131.73,179869
1787097600,133.05,134.38,132.28,132.93,166876
1787184000,131.45,133.83,130.9,132.96,213066
1787270400,134.04,135.13,133.1,134.8,121320
1787529600,135.36,136.34,134.39,134.75,99846
1787616000,135.59,135.59,133.22,134.72,91496
1787702400,135,136.64,134.43,135.24,95182
1787788800,133.78,134.69,132.26,132.86,145299
1787875200,133.55,133.66,132.04,132.99,121483
1788134400,132.21,132.44,130.83,131.62,124260
1788220800,131.65,132.07,130.78,130.92,185996
1788307200,131.27,132.26,129.69,130.33,207449
1788393600,130.65,130.65,126.99,128.31,100716
1788480000,127.53,128.47,126.52,127.41,108671
1788825600,126.2,126.99,124.25,124.34,140609
1788912000,123.97,123.97,121.09,122.11,188878
1788998400,122.05,123.12,120.74,123.05,202291
1789084800,124.85,125.6,123.06,124.84,223316
1789344000,125.28,126.21,124,124.91,192690
1789430400,124.85,124.86,123.4,124.68,194076
1789516800,124.84,126.25,123.2,124.71,203712
1789603200,125.66,126.22,124.55,125.5,256951
1789689600,125.49,125.77,124.41,124.44,285978
1789948800,124.84,125.98,123.32,123.4,170451
1790035200,124.72,125.8,123.82,125.45,160605
1790121600,125.43,125.72,124.5,124.74,140524
1790208000,124.51,124.99,122.32,123.38,185926
1790294400,123.76,124.05,122.42,123.87,140951
1790553600,122.89,124.59,122.09,124.45,172069
1790640000,123.83,124.67,122.12,123.29,188614
1790726400,123.07,123.07,121.13,121.16,183123
1790812800,120.22,121.62,119.21,120.87,163377
1790899200,121.34,121.97,119.73,119.91,130487
1791158400,119.28,121.37,118.78,120.61,120047
1791244800,119.97,121.13,118.86,120.25,298944
